# Matter power spectrum P(k) at redshift z=0 for k=1.37159e-05 to 993.25 h/Mpc, number of wavenumbers equal to 592. Normalized to sigma8=0.8288, produced by VGP using CLASS (installed by CMB). k (h/Mpc)  P (Mpc/h)^3:
1.371595e-05 1.0808598584e+01
1.703761e-04 1.2170062432e+02
3.270397e-04 2.2762219666e+02
4.837068e-04 3.3127039847e+02
6.403775e-04 4.3327390044e+02
7.970518e-04 5.3390776407e+02
9.537300e-04 6.3332228335e+02
1.110412e-03 7.3161132105e+02
1.267098e-03 8.2883797601e+02
1.423788e-03 9.2504645032e+02
1.580481e-03 1.0202684214e+03
1.737179e-03 1.1145273576e+03
1.893882e-03 1.2078214981e+03
2.050588e-03 1.3001749144e+03
2.207299e-03 1.3916072019e+03
2.364014e-03 1.4821279838e+03
2.520734e-03 1.5717443465e+03
2.677459e-03 1.6604645351e+03
2.834188e-03 1.7482948685e+03
2.990923e-03 1.8352418586e+03
3.147662e-03 1.9213108446e+03
3.304406e-03 2.0065075037e+03
3.461156e-03 2.0908366004e+03
3.617910e-03 2.1743048998e+03
3.774670e-03 2.2569158414e+03
3.931436e-03 2.3386757880e+03
4.088207e-03 2.4195908533e+03
4.244984e-03 2.4996643476e+03
4.401766e-03 2.5789031612e+03
4.558555e-03 2.6573116339e+03
4.715350e-03 2.7348944886e+03
4.872150e-03 2.8116585803e+03
5.028958e-03 2.8876076542e+03
5.185771e-03 2.9627472720e+03
5.342591e-03 3.0370855593e+03
5.499418e-03 3.1106228286e+03
5.656252e-03 3.1833670055e+03
5.813092e-03 3.2553233826e+03
5.969940e-03 3.3264971935e+03
6.126795e-03 3.3968919638e+03
6.283657e-03 3.4665378707e+03
6.440527e-03 3.5355082602e+03
6.597405e-03 3.6037176299e+03
6.754290e-03 3.6710579562e+03
6.911184e-03 3.7376467437e+03
7.068086e-03 3.8034771905e+03
7.224996e-03 3.8685617188e+03
7.381914e-03 3.9329285308e+03
7.538842e-03 3.9965452805e+03
7.695778e-03 4.0594354279e+03
7.852723e-03 4.1215999674e+03
8.009677e-03 4.1830546650e+03
8.166641e-03 4.2437944208e+03
8.323615e-03 4.3038266171e+03
8.480598e-03 4.3631750314e+03
8.637591e-03 4.4218388036e+03
8.794595e-03 4.4798112818e+03
8.951609e-03 4.5370778747e+03
9.108633e-03 4.5936770800e+03
9.265669e-03 4.6489191914e+03
9.422715e-03 4.7043042201e+03
9.579773e-03 4.7589060735e+03
9.736842e-03 4.8128476691e+03
9.893923e-03 4.8661152325e+03
1.005102e-02 4.9187112083e+03
1.020812e-02 4.9706540624e+03
1.036524e-02 5.0219299668e+03
1.052237e-02 5.0728036543e+03
1.067951e-02 5.1230200732e+03
1.083667e-02 5.1724662111e+03
1.099384e-02 5.2208909416e+03
1.115102e-02 5.2694740584e+03
1.130822e-02 5.3170343867e+03
1.146544e-02 5.3639025947e+03
1.162266e-02 5.4102185853e+03
1.177991e-02 5.4555231551e+03
1.193716e-02 5.5006326238e+03
1.209444e-02 5.5451554101e+03
1.225173e-02 5.5891118256e+03
1.240903e-02 5.6324934600e+03
1.256635e-02 5.6753066453e+03
1.272369e-02 5.7175072624e+03
1.288105e-02 5.7590271279e+03
1.303842e-02 5.8005604242e+03
1.319581e-02 5.8410054268e+03
1.335322e-02 5.8810365316e+03
1.351065e-02 5.9200044766e+03
1.366810e-02 5.9591729298e+03
1.382557e-02 5.9975419140e+03
1.398305e-02 6.0353130225e+03
1.414056e-02 6.0724553109e+03
1.429809e-02 6.1091704015e+03
1.445564e-02 6.1452658754e+03
1.461321e-02 6.1808268829e+03
1.477080e-02 6.2160342325e+03
1.492842e-02 6.2506167234e+03
1.508605e-02 6.2846735825e+03
1.524372e-02 6.3181080866e+03
1.540140e-02 6.3514357688e+03
1.555911e-02 6.3835880578e+03
1.571685e-02 6.4158309645e+03
1.587460e-02 6.4473533023e+03
1.603239e-02 6.4783709342e+03
1.619020e-02 6.5086504082e+03
1.634804e-02 6.5387420626e+03
1.650591e-02 6.5684903110e+03
1.666380e-02 6.5974357532e+03
1.682173e-02 6.6264104519e+03
1.697968e-02 6.6543037257e+03
1.713766e-02 6.6818324533e+03
1.729567e-02 6.7091284408e+03
1.745372e-02 6.7360454557e+03
1.761179e-02 6.7627649138e+03
1.776990e-02 6.7885246446e+03
1.792804e-02 6.8135304811e+03
1.808622e-02 6.8386056901e+03
1.824442e-02 6.8631599815e+03
1.840267e-02 6.8870750796e+03
1.856095e-02 6.9109077855e+03
1.871926e-02 6.9342169631e+03
1.887762e-02 6.9572096900e+03
1.903601e-02 6.9789984099e+03
1.919444e-02 7.0014146039e+03
1.935291e-02 7.0232611699e+03
1.951142e-02 7.0443701507e+03
1.966997e-02 7.0650077321e+03
1.982857e-02 7.0849850122e+03
1.998721e-02 7.1053183241e+03
2.014589e-02 7.1244299607e+03
2.030461e-02 7.1437440032e+03
2.046339e-02 7.1622967501e+03
2.062221e-02 7.1810309849e+03
2.078107e-02 7.1986152907e+03
2.093999e-02 7.2165976810e+03
2.109895e-02 7.2335639173e+03
2.125797e-02 7.2504403155e+03
2.141704e-02 7.2669069361e+03
2.157616e-02 7.2826001844e+03
2.173533e-02 7.2990077061e+03
2.189456e-02 7.3138072999e+03
2.205385e-02 7.3287182832e+03
2.221319e-02 7.3436452737e+03
2.237259e-02 7.3576184116e+03
2.253206e-02 7.3713759550e+03
2.269158e-02 7.3850958226e+03
2.285117e-02 7.3983219908e+03
2.301082e-02 7.4109689069e+03
2.317053e-02 7.4237918055e+03
2.333031e-02 7.4356930398e+03
2.349016e-02 7.4474881746e+03
2.365008e-02 7.4590187689e+03
2.381007e-02 7.4704341708e+03
2.397013e-02 7.4814123207e+03
2.413026e-02 7.4923758471e+03
2.429048e-02 7.5022442214e+03
2.445076e-02 7.5121781575e+03
2.461113e-02 7.5218246697e+03
2.477157e-02 7.5311641510e+03
2.493210e-02 7.5400995273e+03
2.509271e-02 7.5491006556e+03
2.525341e-02 7.5571743897e+03
2.541419e-02 7.5653511024e+03
2.557507e-02 7.5730322236e+03
2.573603e-02 7.5810554817e+03
2.589709e-02 7.5883102790e+03
2.605824e-02 7.5948923718e+03
2.621949e-02 7.6015263555e+03
2.638084e-02 7.6079611116e+03
2.654229e-02 7.6141742837e+03
2.670384e-02 7.6199958285e+03
2.686550e-02 7.6255850400e+03
2.702726e-02 7.6307777661e+03
2.718914e-02 7.6359488063e+03
2.735112e-02 7.6406324660e+03
2.751323e-02 7.6451689786e+03
2.767545e-02 7.6493302545e+03
2.783779e-02 7.6536064406e+03
2.800025e-02 7.6572660648e+03
2.816284e-02 7.6607614482e+03
2.832555e-02 7.6641871778e+03
2.848840e-02 7.6671108589e+03
2.865138e-02 7.6698815746e+03
2.881449e-02 7.6724555789e+03
2.897775e-02 7.6747409788e+03
2.914114e-02 7.6768368294e+03
2.930469e-02 7.6786709816e+03
2.946838e-02 7.6802796670e+03
2.963222e-02 7.6816599947e+03
2.979622e-02 7.6829346580e+03
2.996038e-02 7.6839079789e+03
3.012470e-02 7.6845264226e+03
3.028918e-02 7.6849423453e+03
3.045384e-02 7.6852927594e+03
3.061867e-02 7.6854668327e+03
3.078367e-02 7.6852849901e+03
3.094886e-02 7.6850184025e+03
3.111423e-02 7.6845645024e+03
3.127979e-02 7.6837867437e+03
3.144555e-02 7.6828561951e+03
3.161150e-02 7.6818420556e+03
3.177765e-02 7.6805426618e+03
3.194401e-02 7.6788617484e+03
3.211059e-02 7.6771361963e+03
3.227738e-02 7.6754309268e+03
3.244439e-02 7.6733490496e+03
3.261163e-02 7.6711552447e+03
3.277909e-02 7.6685830276e+03
3.294680e-02 7.6659320921e+03
3.311475e-02 7.6631944135e+03
3.328294e-02 7.6602499821e+03
3.345139e-02 7.6571838311e+03
3.362010e-02 7.6538814945e+03
3.378907e-02 7.6504165940e+03
3.395832e-02 7.6466894504e+03
3.412784e-02 7.6430206565e+03
3.429765e-02 7.6390729543e+03
3.446775e-02 7.6349782938e+03
3.463815e-02 7.6305230647e+03
3.480885e-02 7.6262009534e+03
3.497987e-02 7.6214985716e+03
3.515120e-02 7.6166971247e+03
3.532286e-02 7.6118592243e+03
3.549486e-02 7.6069553517e+03
3.566720e-02 7.6016097267e+03
3.583989e-02 7.5964459581e+03
3.601294e-02 7.5909534239e+03
3.618636e-02 7.5852954018e+03
3.636016e-02 7.5795290556e+03
3.653434e-02 7.5734894906e+03
3.670892e-02 7.5674472449e+03
3.688391e-02 7.5614294590e+03
3.705931e-02 7.5550901173e+03
3.723515e-02 7.5486736434e+03
3.741141e-02 7.5420127838e+03
3.758813e-02 7.5352717852e+03
3.776530e-02 7.5283386955e+03
3.794295e-02 7.5214581929e+03
3.812108e-02 7.5144085843e+03
3.829970e-02 7.5071735665e+03
3.847884e-02 7.4998254044e+03
3.865849e-02 7.4923526248e+03
3.883868e-02 7.4847767010e+03
3.901941e-02 7.4770997755e+03
3.920071e-02 7.4691318829e+03
3.938259e-02 7.4612742215e+03
3.956506e-02 7.4533253759e+03
3.974814e-02 7.4450683222e+03
3.993184e-02 7.4368279198e+03
4.011619e-02 7.4284134547e+03
4.030119e-02 7.4199847250e+03
4.048688e-02 7.4113064236e+03
4.067325e-02 7.4025033289e+03
4.086034e-02 7.3937523814e+03
4.104817e-02 7.3847319876e+03
4.123675e-02 7.3756369657e+03
4.142611e-02 7.3665203330e+03
4.161626e-02 7.3571343586e+03
4.180724e-02 7.3479159323e+03
4.199906e-02 7.3383757223e+03
4.219174e-02 7.3287878632e+03
4.238533e-02 7.3189704880e+03
4.257983e-02 7.3091768479e+03
4.277527e-02 7.2993289340e+03
4.297170e-02 7.2893379896e+03
4.316912e-02 7.2791854600e+03
4.336759e-02 7.2689704028e+03
4.356711e-02 7.2585735978e+03
4.376774e-02 7.2483523698e+03
4.396950e-02 7.2377735151e+03
4.417242e-02 7.2272663864e+03
4.437655e-02 7.2163982535e+03
4.458193e-02 7.2054776924e+03
4.478858e-02 7.1945879899e+03
4.499656e-02 7.1834606622e+03
4.520591e-02 7.1725259070e+03
4.541667e-02 7.1611719956e+03
4.562889e-02 7.1498784005e+03
4.584262e-02 7.1383394127e+03
4.605791e-02 7.1267923064e+03
4.627481e-02 7.1151737657e+03
4.649339e-02 7.1032938306e+03
4.671369e-02 7.0915741990e+03
4.693578e-02 7.0794858815e+03
4.715973e-02 7.0673686589e+03
4.738560e-02 7.0552065204e+03
4.761346e-02 7.0427766748e+03
4.784339e-02 7.0303007722e+03
4.807547e-02 7.0177026529e+03
4.830978e-02 7.0049745705e+03
4.854640e-02 6.9921723498e+03
4.878543e-02 6.9793072999e+03
4.902695e-02 6.9662560025e+03
4.927109e-02 6.9528882970e+03
4.951793e-02 6.9397958984e+03
4.976760e-02 6.9260759521e+03
5.002021e-02 6.9126007827e+03
5.027590e-02 6.8986412899e+03
5.053478e-02 6.8849834018e+03
5.079702e-02 6.8708077040e+03
5.106275e-02 6.8565929994e+03
5.133215e-02 6.8421735472e+03
5.160538e-02 6.8276967898e+03
5.188262e-02 6.8127456501e+03
5.216407e-02 6.7981567437e+03
5.244994e-02 6.7829834066e+03
5.274046e-02 6.7677249556e+03
5.303585e-02 6.7522782495e+03
5.333639e-02 6.7364487959e+03
5.364234e-02 6.7206066243e+03
5.395401e-02 6.7044941191e+03
5.427171e-02 6.6880834752e+03
5.459579e-02 6.6714799103e+03
5.492664e-02 6.6544839548e+03
5.526465e-02 6.6374294138e+03
5.561026e-02 6.6198786275e+03
5.596397e-02 6.6022817015e+03
5.632631e-02 6.5842466373e+03
5.669783e-02 6.5658331357e+03
5.707919e-02 6.5470652755e+03
5.747108e-02 6.5278327631e+03
5.787426e-02 6.5082169381e+03
5.828959e-02 6.4882788874e+03
5.871801e-02 6.4678595734e+03
5.916057e-02 6.4468908046e+03
5.961844e-02 6.4252562589e+03
6.009293e-02 6.4032057812e+03
6.058552e-02 6.3803602288e+03
6.109789e-02 6.3570497968e+03
6.163191e-02 6.3328643780e+03
6.218976e-02 6.3078518708e+03
6.277388e-02 6.2819192457e+03
6.338712e-02 6.2547315493e+03
6.403275e-02 6.2270320986e+03
6.471457e-02 6.1976523472e+03
6.543701e-02 6.1669295091e+03
6.620528e-02 6.1346312198e+03
6.702551e-02 6.1005621664e+03
6.790497e-02 6.0644728080e+03
6.885233e-02 6.0259990368e+03
6.987793e-02 5.9848773050e+03
7.099414e-02 5.9402108513e+03
7.221578e-02 5.8914248936e+03
7.356047e-02 5.8391622080e+03
7.504893e-02 5.7801160610e+03
7.670505e-02 5.7149702052e+03
7.855525e-02 5.6423866270e+03
8.062688e-02 5.5596077473e+03
8.294491e-02 5.4657678914e+03
8.552693e-02 5.3583984685e+03
8.837711e-02 5.2374531761e+03
9.148181e-02 5.1014885575e+03
9.480986e-02 4.9527847004e+03
9.831856e-02 4.7934790497e+03
1.019627e-01 4.6272091887e+03
1.057020e-01 4.4591447190e+03
1.095051e-01 4.2927890593e+03
1.133495e-01 4.1325170904e+03
1.172199e-01 3.9813551787e+03
1.211065e-01 3.8411286675e+03
1.250031e-01 3.7127608982e+03
1.289059e-01 3.5958801317e+03
1.328123e-01 3.4899589193e+03
1.367210e-01 3.3937885784e+03
1.406311e-01 3.3047149770e+03
1.445421e-01 3.2214442520e+03
1.484535e-01 3.1415000864e+03
1.523653e-01 3.0631965415e+03
1.562772e-01 2.9850024055e+03
1.601893e-01 2.9060845678e+03
1.641014e-01 2.8258480677e+03
1.680136e-01 2.7445531852e+03
1.719258e-01 2.6628730393e+03
1.758380e-01 2.5811799167e+03
1.797502e-01 2.5009306278e+03
1.836624e-01 2.4228419424e+03
1.875747e-01 2.3481544902e+03
1.914869e-01 2.2775152522e+03
1.953991e-01 2.2113945124e+03
1.993113e-01 2.1500610803e+03
2.032236e-01 2.0937162552e+03
2.071358e-01 2.0416384882e+03
2.110480e-01 1.9935326007e+03
2.149603e-01 1.9485312686e+03
2.188725e-01 1.9060503999e+03
2.227847e-01 1.8654169884e+03
2.266970e-01 1.8256588769e+03
2.306092e-01 1.7867545611e+03
2.345214e-01 1.7478087449e+03
2.384337e-01 1.7086307624e+03
2.423459e-01 1.6689790095e+03
2.462581e-01 1.6291617602e+03
2.501704e-01 1.5893367220e+03
2.540826e-01 1.5500257541e+03
2.579948e-01 1.5114149325e+03
2.619071e-01 1.4739593889e+03
2.658193e-01 1.4378933743e+03
2.697315e-01 1.4035592158e+03
2.736438e-01 1.3710204129e+03
2.775560e-01 1.3403426707e+03
2.814682e-01 1.3114618104e+03
2.853805e-01 1.2841741924e+03
2.892927e-01 1.2584845679e+03
2.932049e-01 1.2340073178e+03
2.971172e-01 1.2105895856e+03
3.010294e-01 1.1879976315e+03
3.049416e-01 1.1657088828e+03
3.088539e-01 1.1439216053e+03
3.127661e-01 1.1221896472e+03
3.166783e-01 1.1006954704e+03
3.205906e-01 1.0792149487e+03
3.245028e-01 1.0578619361e+03
3.284150e-01 1.0366220522e+03
3.323273e-01 1.0157361113e+03
3.362395e-01 9.9520817910e+02
3.401517e-01 9.7518409437e+02
3.440640e-01 9.5571313863e+02
3.479762e-01 9.3693868442e+02
3.518884e-01 9.1888152699e+02
3.558007e-01 9.0166613545e+02
3.597129e-01 8.8513758147e+02
3.636251e-01 8.6928470721e+02
3.675374e-01 8.5410578853e+02
3.714496e-01 8.3952984646e+02
3.753618e-01 8.2531960303e+02
3.792741e-01 8.1155841043e+02
3.831863e-01 7.9803494704e+02
3.870985e-01 7.8478960148e+02
3.910108e-01 7.7172008044e+02
3.949230e-01 7.5883167831e+02
3.988352e-01 7.4608978742e+02
4.027475e-01 7.3347735208e+02
4.066597e-01 7.2099384424e+02
4.105719e-01 7.0874013113e+02
4.144842e-01 6.9670348238e+02
4.183964e-01 6.8494645649e+02
4.223086e-01 6.7344374446e+02
4.262209e-01 6.6235288470e+02
4.301331e-01 6.5145325552e+02
4.340453e-01 6.4089729649e+02
4.379576e-01 6.3069124797e+02
4.418698e-01 6.2078601517e+02
4.457820e-01 6.1117188046e+02
4.496943e-01 6.0186990785e+02
4.536065e-01 5.9273414561e+02
4.575187e-01 5.8385804627e+02
4.614310e-01 5.7516880911e+02
4.653432e-01 5.6664112745e+02
4.692554e-01 5.5825933070e+02
4.731677e-01 5.5000685861e+02
4.770799e-01 5.4189186148e+02
4.809921e-01 5.3391004275e+02
4.849044e-01 5.2603428002e+02
4.888166e-01 5.1831452460e+02
4.927288e-01 5.1069972786e+02
4.966411e-01 5.0323240400e+02
5.005533e-01 4.9590471251e+02
5.044655e-01 4.8872935276e+02
5.083778e-01 4.8175112474e+02
5.122900e-01 4.7485183595e+02
5.162022e-01 4.6814382385e+02
5.201145e-01 4.6161290303e+02
5.240267e-01 4.5523740348e+02
5.279389e-01 4.4901615448e+02
5.318512e-01 4.4292453226e+02
5.357634e-01 4.3695542729e+02
5.396756e-01 4.3110712377e+02
5.435879e-01 4.2536947039e+02
5.475001e-01 4.1975400630e+02
5.514123e-01 4.1419872609e+02
5.553246e-01 4.0874847838e+02
5.592368e-01 4.0338266539e+02
5.631490e-01 3.9809494068e+02
5.670613e-01 3.9289061522e+02
5.709735e-01 3.8776692085e+02
5.748857e-01 3.8273158396e+02
5.787980e-01 3.7778819159e+02
5.827102e-01 3.7293599590e+02
5.866224e-01 3.6817535268e+02
5.905347e-01 3.6350367744e+02
5.944469e-01 3.5892301454e+02
5.983591e-01 3.5442901793e+02
6.022714e-01 3.5002068256e+02
6.061836e-01 3.4570032862e+02
6.100958e-01 3.4146174983e+02
6.140081e-01 3.3730178823e+02
6.179203e-01 3.3321477188e+02
6.218325e-01 3.2919480446e+02
6.257448e-01 3.2524225705e+02
6.296570e-01 3.2134897749e+02
6.335692e-01 3.1751934813e+02
6.374815e-01 3.1374950094e+02
6.413937e-01 3.1004076711e+02
6.453059e-01 3.0639052261e+02
6.492182e-01 3.0279815866e+02
6.531304e-01 2.9926180149e+02
6.570426e-01 2.9577929342e+02
6.609549e-01 2.9235194976e+02
6.648671e-01 2.8898076277e+02
6.687793e-01 2.8566534855e+02
6.726916e-01 2.8240589708e+02
6.766038e-01 2.7920181444e+02
6.805160e-01 2.7605109152e+02
6.844283e-01 2.7295135948e+02
6.883405e-01 2.6990162695e+02
6.922527e-01 2.6689993379e+02
6.961650e-01 2.6394653331e+02
7.000772e-01 2.6103941896e+02
7.039894e-01 2.5817865558e+02
7.079017e-01 2.5536338437e+02
7.118139e-01 2.5258957542e+02
7.157261e-01 2.4985691382e+02
7.196384e-01 2.4716280400e+02
7.235506e-01 2.4450755056e+02
7.274628e-01 2.4189041761e+02
7.313751e-01 2.3931194755e+02
7.352873e-01 2.3677292048e+02
7.391995e-01 2.3427208429e+02
7.431118e-01 2.3180873567e+02
7.470240e-01 2.2938093173e+02
7.509362e-01 2.2698824358e+02
7.548485e-01 2.2463031105e+02
7.587607e-01 2.2230744953e+02
7.626729e-01 2.2001902914e+02
7.665852e-01 2.1776591035e+02
7.704974e-01 2.1554520967e+02
7.744096e-01 2.1335668141e+02
7.783219e-01 2.1120004281e+02
7.822341e-01 2.0907370541e+02
7.861463e-01 2.0697604793e+02
7.900586e-01 2.0490692368e+02
7.939708e-01 2.0286727167e+02
7.978830e-01 2.0085686722e+02
8.017953e-01 1.9887455520e+02
8.057075e-01 1.9691938233e+02
8.096197e-01 1.9499106922e+02
8.135320e-01 1.9308820843e+02
8.174442e-01 1.9121000052e+02
8.213564e-01 1.8935726297e+02
8.252687e-01 1.8752965943e+02
8.291809e-01 1.8572816974e+02
8.330931e-01 1.8394967897e+02
8.370054e-01 1.8219845869e+02
8.409176e-01 1.8046892640e+02
8.448298e-01 1.7876189613e+02
8.487421e-01 1.7707705363e+02
8.526543e-01 1.7541411644e+02
8.565665e-01 1.7377369261e+02
8.604788e-01 1.7215517700e+02
8.643910e-01 1.7055810270e+02
8.683032e-01 1.6898244775e+02
8.722155e-01 1.6742729173e+02
8.761277e-01 1.6589092961e+02
8.800399e-01 1.6437419144e+02
8.839522e-01 1.6287636808e+02
8.878644e-01 1.6139770549e+02
8.917766e-01 1.5993697178e+02
8.956889e-01 1.5849602795e+02
8.996011e-01 1.5707255573e+02
9.035133e-01 1.5566914984e+02
9.074256e-01 1.5428157952e+02
9.886020e-01 1.2901695616e+02
1.104376e+00 1.0203871113e+02
1.286260e+00 7.3429556848e+01
1.577686e+00 4.6775884658e+01
1.981869e+00 2.7915010130e+01
2.494932e+00 1.6380098229e+01
3.140933e+00 9.5069206421e+00
3.954200e+00 5.4642601663e+00
4.978043e+00 3.1133667302e+00
6.266985e+00 1.7598560918e+00
7.889667e+00 9.8770662593e-01
9.932502e+00 5.5066163164e-01
1.250428e+01 3.0524861720e-01
1.574195e+01 1.6831169101e-01
1.981795e+01 9.2331848379e-02
2.494932e+01 5.0423924094e-02
3.140933e+01 2.7419566125e-02
3.954200e+01 1.4850701069e-02
4.978043e+01 8.0130522062e-03
6.266985e+01 4.3077613812e-03
7.889667e+01 2.3076875695e-03
9.932502e+01 1.2316810398e-03
1.250428e+02 6.5449634345e-04
1.574195e+02 3.4608537981e-04
1.981795e+02 1.8206241612e-04
2.494932e+02 9.5034419606e-05
3.140933e+02 4.9135848077e-05
3.954200e+02 2.5088698098e-05
4.978043e+02 1.2618254638e-05
6.266985e+02 6.2448916941e-06
7.889667e+02 3.0523943689e-06
9.932502e+02 1.4873695565e-06
